Kracht (N);Uitrekking (mm)
1.3836;-0.003
1381.933;-0.001
1382.4;0
1382.667;0.001
1384.467;0.002
1385.467;0.003
1388.8;0.004
1393.733;0.005
1398.067;0.006
1402.667;0.007
1416.333;0.008
1425.333;0.009
1434.333;0.01
1448.467;0.011
1455.933;0.012
1466.267;0.013
1473.4;0.014
1482.933;0.015
1491.533;0.016
1501.867;0.017
1516.733;0.018
1524;0.019
1532.467;0.021
1543.267;0.022
1553.6;0.023
1561.133;0.024
1569.267;0.025
1580.267;0.026
1590.733;0.027
1598.2;0.028
1605.4;0.029
1614.733;0.03
1622.867;0.031
1627.8;0.032
1632;0.033
1636.6;0.034
1640.067;0.035
1642.133;0.036
1644.2;0.037
1645.867;0.038
1648.133;0.039
1650.2;0.04
1651.6;0.042
1653.333;0.043
1656.067;0.044
1658.667;0.045
1660.533;0.046
1662.2;0.047
1665.4;0.048
1667;0.049
1669.533;0.05
1671.933;0.051
1675.267;0.052
1677.667;0.053
1679.6;0.054
1681.867;0.055
1683.933;0.056
1685.933;0.057
1687.733;0.058
1689.467;0.059
1691.267;0.061
1693.867;0.062
1695.867;0.063
1697.667;0.064
1699.333;0.065
1701.933;0.066
1704.267;0.067
1706.2;0.068
1708.533;0.069
1711.467;0.07
1713.467;0.071
1715.067;0.072
1716.6;0.073
1719.6;0.074
1721.733;0.075
1723.467;0.076
1725;0.077
1727.533;0.079
1729.733;0.08
1730.867;0.081
1732.2;0.082
1734.133;0.083
1736.667;0.084
1738.6;0.085
1741.4;0.086
1743.067;0.087
1746.4;0.088
1748.067;0.089
1749.467;0.09
1751.533;0.092
1753.8;0.093
1757.533;0.094
1759.533;0.095
1761.133;0.096
1764.067;0.097
1766.667;0.098
1767.667;0.099
1769.067;0.1
1771.8;0.101
1773.8;0.102
1775.8;0.103
1776.6;0.104
1779.133;0.106
1781.867;0.107
1783.8;0.108
1786.533;0.109
1789.467;0.11
1791.6;0.111
1793.4;0.112
1795.867;0.113
1798.6;0.114
1801.4;0.115
1804.333;0.116
1806.133;0.117
1807.867;0.119
1810.533;0.12
1813.8;0.121
1815.267;0.122
1816.067;0.123
1818.467;0.124
1820.933;0.125
1822.667;0.126
1825.6;0.127
1827.333;0.128
1830.8;0.129
1832.733;0.131
1835.067;0.132
1837.2;0.133
1840.6;0.134
1843.933;0.135
1846.2;0.136
1848.933;0.137
1850.933;0.138
1853.067;0.139
1855.333;0.14
1856.467;0.141
1859.8;0.142
1861.933;0.144
1863.8;0.145
1865.6;0.146
1868.467;0.147
1871.267;0.148
1873.733;0.149
1876.667;0.15
1880.4;0.151
1883.467;0.152
1885.333;0.153
1887.933;0.155
1891.467;0.156
1894;0.157
1895.667;0.158
1897.733;0.159
1900.6;0.16
1903.6;0.161
1906.067;0.162
1907.933;0.163
1910.267;0.164
1912.733;0.166
1915.067;0.167
1916.2;0.168
1919.067;0.169
1922.067;0.17
1924.133;0.171
1926.2;0.172
1929.4;0.173
1932.333;0.174
1934.6;0.175
1937.467;0.177
1940.6;0.178
1943.733;0.179
1946.067;0.18
1948.133;0.181
1949.933;0.182
1953.2;0.183
1956.067;0.184
1957.8;0.186
1960.133;0.187
1962.933;0.188
1965.933;0.189
1967.8;0.19
1970.4;0.191
1973.267;0.192
1974.933;0.193
1976.6;0.194
1979.4;0.195
1982.4;0.197
1984.267;0.198
1986.6;0.199
1988.8;0.2
1992.667;0.201
1995;0.202
1997.467;0.203
2000.067;0.204
2002.333;0.205
2004.867;0.207
2006.867;0.208
2009.133;0.209
2010.2;0.21
2013.933;0.211
2016.6;0.212
2018.133;0.213
2019.667;0.214
2023.533;0.215
2025.933;0.217
2027.733;0.218
2030.067;0.219
2032.267;0.22
2034.533;0.221
2036.733;0.222
2039;0.223
2042.2;0.224
2045.467;0.226
2048.2;0.227
2051.2;0.228
2053.533;0.229
2056.733;0.23
2059.4;0.231
2061.8;0.232
2064.067;0.233
2067.133;0.234
2069.933;0.236
2071.6;0.237
2073.8;0.238
2076.6;0.239
2080;0.24
2082;0.241
2084.867;0.242
2087.133;0.244
2089.8;0.245
2092.4;0.246
2094.067;0.247
2096.8;0.248
2100.2;0.249
2102.2;0.25
2105.333;0.251
2107.133;0.253
2110.2;0.254
2112.867;0.255
2114.867;0.256
2116.6;0.257
2118.8;0.258
2120.8;0.259
2123.133;0.261
2125.067;0.262
2128.267;0.263
2130.867;0.264
2132.2;0.265
2134.4;0.266
2137.667;0.267
2140.267;0.268
2143;0.27
2145.667;0.271
2147.6;0.272
2149.533;0.273
2151.6;0.274
2154.067;0.275
2157.133;0.276
2158.6;0.278
2161.067;0.279
2162.6;0.28
2164.8;0.281
2166.6;0.282
2167.933;0.283
2169.867;0.284
2173.267;0.285
2175.133;0.287
2176.333;0.288
2179;0.289
2181.2;0.29
2183.933;0.291
2185.267;0.292
2187.867;0.293
2190.4;0.294
2192.2;0.296
2194;0.297
2196.2;0.298
2199.4;0.299
2200.733;0.3
2202.467;0.301
2204.867;0.302
2206.8;0.304
2209.267;0.305
2210.733;0.306
2213.133;0.307
2215.933;0.308
2218.067;0.309
2220.267;0.31
2223.067;0.312
2225.8;0.313
2227.4;0.314
2229.667;0.315
2232.133;0.316
2234.067;0.317
2236.733;0.318
2238.933;0.32
2240.867;0.321
2242.667;0.322
2245.533;0.323
2247.4;0.324
2249.133;0.325
2250.333;0.327
2252.733;0.328
2255.2;0.329
2256.933;0.33
2258.067;0.331
2260.6;0.332
2262.667;0.333
2263.6;0.335
2265.067;0.336
2267.8;0.337
2269.867;0.338
2271.533;0.339
2272.467;0.34
2273.933;0.341
2275.267;0.343
2276.8;0.344
2278.267;0.345
2280.667;0.346
2283.067;0.347
2284.867;0.348
2286.4;0.349
2288.4;0.351
2290.4;0.352
2292;0.353
2294.2;0.354
2295.933;0.355
2298;0.356
2299.533;0.358
2301.733;0.359
2303.867;0.36
2305.8;0.361
2307.667;0.362
2309.2;0.363
2310.667;0.364
2313.067;0.366
2315.467;0.367
2317;0.368
2318.733;0.369
2321.133;0.37
2323.6;0.371
2324.867;0.373
2326.867;0.374
2330.333;0.375
2333.067;0.376
2334.867;0.377
2336.067;0.378
2338.067;0.379
2340.133;0.381
2341.933;0.382
2343.067;0.383
2345.533;0.384
2348.133;0.385
2349.333;0.387
2351.533;0.388
2353.133;0.389
2356.067;0.39
2358.267;0.391
2359.8;0.392
2361.133;0.393
2363.267;0.395
2365.867;0.396
2367.267;0.397
2368.933;0.398
2370.667;0.399
2372.867;0.4
2374.667;0.402
2375.4;0.403
2377.533;0.404
2379.333;0.405
2380.533;0.406
2381.467;0.407
2384.2;0.409
2385.667;0.41
2387.933;0.411
2389.533;0.412
2391.933;0.413
2393.933;0.414
2396;0.415
2397.667;0.417
2399.4;0.418
2401.4;0.419
2403.533;0.42
2405.733;0.421
2406.933;0.422
2408.8;0.424
2410.933;0.425
2413.667;0.426
2415.067;0.427
2416.133;0.428
2418.4;0.429
2419.933;0.431
2422.267;0.432
2425.733;0.433
2426.733;0.434
2428.267;0.435
2430.733;0.436
2433.133;0.438
2435;0.439
2436.933;0.44
2439.8;0.441
2441.733;0.442
2443.6;0.443
2445.267;0.445
2447.2;0.446
2448.467;0.447
2450.933;0.448
2452.933;0.449
2454.667;0.451
2456.533;0.452
2458.2;0.453
2460.2;0.454
2461.933;0.455
2463.4;0.456
2465.733;0.458
2467.467;0.459
2469.4;0.46
2472.2;0.461
2474;0.462
2476.6;0.463
2478.8;0.465
2479.2;0.466
2480.6;0.467
2482.8;0.468
2484.133;0.469
2486.4;0.47
2487.8;0.472
2489.133;0.473
2491;0.474
2492.6;0.475
2495.067;0.476
2497.4;0.477
2499.2;0.479
2501.333;0.48
2504;0.481
2505.267;0.482
2507.533;0.483
2509.933;0.485
2511.933;0.486
2513.6;0.487
2515.333;0.488
2517.8;0.489
2519.267;0.49
2521.533;0.492
2523.2;0.493
2524.667;0.494
2526.267;0.495
2529.467;0.496
2531.4;0.497
2533.067;0.499
2535.4;0.5
2538.267;0.501
2540.667;0.502
2541.733;0.503
2543.333;0.505
2546.267;0.506
2547.8;0.507
2548.467;0.508
2549.8;0.509
2552.2;0.51
2553.933;0.512
2554.933;0.513
2556.6;0.514
2558.733;0.515
2560.2;0.516
2561.4;0.517
2563.933;0.519
2566.467;0.52
2567.933;0.521
2569.667;0.522
2571.4;0.523
2573.8;0.525
2575.267;0.526
2577.267;0.527
2578.467;0.528
2580;0.529
2582.133;0.53
2584.2;0.532
2585.133;0.533
2587.8;0.534
2590;0.535
2591.533;0.536
2593.733;0.538
2595.267;0.539
2598.467;0.54
2600.667;0.541
2602.6;0.542
2604.067;0.544
2606.8;0.545
2609.267;0.546
2611.067;0.547
2613.4;0.548
2614.8;0.549
2616.733;0.551
2618.867;0.552
2620.933;0.553
2623.333;0.554
2625.267;0.555
2626.867;0.557
2629.067;0.558
2631.8;0.559
2633.2;0.56
2635.533;0.561
2637.6;0.563
2639.2;0.564
2640.867;0.565
2642.867;0.566
2644.8;0.567
2646.333;0.568
2647.667;0.57
2650.2;0.571
2652.867;0.572
2654.667;0.573
2656.8;0.574
2659.133;0.576
2661.333;0.577
2663.267;0.578
2665.2;0.579
2667.133;0.58
2669.4;0.582
2672.067;0.583
2675.467;0.584
2676.267;0.585
2678.6;0.586
2680.067;0.587
2682.2;0.589
2683.4;0.59
2686.133;0.591
2687.933;0.592
2690.133;0.593
2691.867;0.595
2693.667;0.596
2695.867;0.597
2698.467;0.598
2701.133;0.599
2703.267;0.601
2706.133;0.602
2708.467;0.603
2710.667;0.604
2712.267;0.605
2714.867;0.607
2716.467;0.608
2718.267;0.609
2720.133;0.61
2721.333;0.611
2724.133;0.613
2726.133;0.614
2728.133;0.615
2729.467;0.616
2731.267;0.617
2733.6;0.619
2734.867;0.62
2736.333;0.621
2738.867;0.622
2741.2;0.623
2742.533;0.624
2743.867;0.626
2745.533;0.627
2748.667;0.628
2750.933;0.629
2752.4;0.63
2753.467;0.632
2755.333;0.633
2756.8;0.634
2758.4;0.635
2758.8;0.636
2761.2;0.638
2762.8;0.639
2763.733;0.64
2764.6;0.641
2766.933;0.642
2769.067;0.644
2771.533;0.645
2773.8;0.646
2775.467;0.647
2778;0.648
2778.867;0.65
2780.533;0.651
2783.2;0.652
2785.6;0.653
2787.533;0.654
2788.6;0.656
2791.533;0.657
2794.733;0.658
2797;0.659
2798.667;0.66
2800.733;0.662
2803.467;0.663
2805.267;0.664
2807.667;0.665
2810.533;0.666
2812.667;0.668
2815.133;0.669
2818.133;0.67
2820.267;0.671
2822;0.672
2824.267;0.674
2827.267;0.675
2829.2;0.676
2830.867;0.677
2834.067;0.678
2835.2;0.68
2837.133;0.681
2839.2;0.682
2841.133;0.683
2843.533;0.684
2845.733;0.686
2847.933;0.687
2851.067;0.688
2852.933;0.689
2853.933;0.69
2856.2;0.692
2858.333;0.693
2860.467;0.694
2862.8;0.695
2864.2;0.696
2866.533;0.698
2869.267;0.699
2870.267;0.7
2872;0.701
2873.8;0.702
2877.067;0.704
2879.733;0.705
2881.533;0.706
2883.333;0.707
2885.8;0.708
2888.467;0.71
2890.333;0.711
2892.067;0.712
2894.2;0.713
2896.4;0.714
2898.6;0.716
2900.533;0.717
2902.467;0.718
2904.467;0.719
2906.067;0.72
2907.933;0.722
2910;0.723
2912.2;0.724
2913.867;0.725
2916.267;0.726
2918.533;0.728
2920.133;0.729
2922.667;0.73
2925.867;0.731
2928;0.733
2929.267;0.734
2932.933;0.735
2934.933;0.736
2936.533;0.737
2938.4;0.739
2940.267;0.74
2943.933;0.741
2946.267;0.742
2948.533;0.743
2950.333;0.745
2951.6;0.746
2954.933;0.747
2957.667;0.748
2959;0.749
2960.867;0.751
2963.533;0.752
2966.2;0.753
2967.2;0.754
2969.733;0.755
2972.6;0.757
2974.8;0.758
2976.4;0.759
2978.8;0.76
2981.733;0.761
2984.133;0.763
2986;0.764
2987.933;0.765
2989.2;0.766
2992.2;0.767
2993.2;0.769
2994.467;0.77
2996.333;0.771
2998.933;0.772
3000.6;0.774
3001.533;0.775
3003.467;0.776
3006.467;0.777
3008.267;0.778
3010.067;0.78
3011.867;0.781
3013.333;0.782
3015;0.783
3017.867;0.784
3019.933;0.786
3022.067;0.787
3024.2;0.788
3025.467;0.789
3027.2;0.79
3028.467;0.792
3031.4;0.793
3033.333;0.794
3035;0.795
3036.4;0.797
3038.533;0.798
3040.4;0.799
3042.733;0.8
3044.067;0.801
3046.667;0.803
3049.067;0.804
3050.8;0.805
3052.067;0.806
3055.333;0.807
3057.933;0.809
3058.933;0.81
3059.267;0.811
3061.067;0.812
3062.6;0.814
3063.667;0.815
3065.933;0.816
3066.867;0.817
3067.333;0.818
3068.4;0.82
3068.6;0.821
3069.6;0.822
3070.533;0.823
3070.733;0.824
3071.533;0.826
3071.867;0.827
3071.533;0.828
3070.333;0.829
3070.067;0.831
3069.867;0.832
3068.667;0.833
3066.6;0.834
3065.6;0.835
3064.6;0.837
3063.467;0.838
3062.067;0.839
3059.8;0.84
3058.333;0.842
3056.8;0.843
3054.267;0.844
3052.267;0.845
3051.133;0.846
3049.2;0.848
3046.067;0.849
3043.667;0.85
3042.6;0.851
3040.8;0.852
3038.6;0.854
3037;0.855
3035.267;0.856
3033.333;0.857
3031.667;0.858
3030.133;0.86
3029.067;0.861
3027.067;0.862
3025.467;0.863
3024.333;0.865
3023.067;0.866
3022.2;0.867
3020.067;0.868
3019.467;0.869
3018.267;0.871
3017.467;0.872
3017.2;0.873
3016.267;0.874
3014.733;0.875
3014;0.877
3013.667;0.878
3013;0.879
3013.8;0.88
3013.267;0.882
3013.267;0.883
3012.867;0.884
3013.8;0.885
3014.133;0.886
3015.133;0.888
3016.133;0.889
3016.933;0.89
3017.933;0.891
3020.267;0.893
3021.733;0.894
3023;0.895
3023.6;0.896
3025.133;0.897
3025.867;0.899
3026.867;0.9
3028.6;0.901
3029.333;0.902
3031.267;0.903
3032.6;0.905
3034.667;0.906
3036.267;0.907
3037.867;0.908
3041.067;0.91
3041.933;0.911
3043.533;0.912
3046.533;0.913
3047.8;0.914
3049.267;0.916
3050.267;0.917
3052.467;0.918
3053.933;0.919
3055.467;0.921
3057.067;0.922
3058.267;0.923
3058.867;0.924
3059.867;0.925
3062.667;0.927
3064.333;0.928
3065.867;0.929
3068;0.93
3070.8;0.932
3071.467;0.933
3073.133;0.934
3075.8;0.935
3077.333;0.936
3078.467;0.938
3080.133;0.939
3082.133;0.94
3082.6;0.941
3083.933;0.943
3085.533;0.944
3087.333;0.945
3089.133;0.946
3090.467;0.947
3091.933;0.949
3093.2;0.95
3095.667;0.951
3098.133;0.952
3099.267;0.954
3100.733;0.955
3102.467;0.956
3105.6;0.957
3108.667;0.958
3109.933;0.96
3111.933;0.961
3114.333;0.962
3116;0.963
3117.067;0.965
3118.533;0.966
3121.467;0.967
3123.933;0.968
3124.733;0.969
3125.667;0.971
3127.2;0.972
3129.933;0.973
3131.2;0.974
3133.4;0.976
3136.067;0.977
3138.533;0.978
3140.2;0.979
3142.333;0.98
3144.067;0.982
3146.8;0.983
3148.667;0.984
3150;0.985
3152.133;0.987
3153.933;0.988
3156.4;0.989
3158.333;0.99
3159.467;0.991
3160.733;0.993
3162.467;0.994
3164;0.995
3165.6;0.996
3167;0.998
3169.333;0.999
3171.2;1
3172.533;1.001
3174.133;1.002
3176.667;1.004
3178.667;1.005
3180.6;1.006
3181.933;1.007
3183.4;1.009
3184.333;1.01
3185.333;1.011
3186.867;1.012
3188.333;1.013
3189.867;1.015
3190.667;1.016
3192.267;1.017
3193.6;1.018
3194.733;1.02
3195.533;1.021
3196.333;1.022
3198;1.023
3198.733;1.024
3200;1.026
3201.4;1.027
3202.867;1.028
3204.067;1.029
3204.533;1.031
3206.267;1.032
3207.333;1.033
3209.733;1.034
3210.467;1.036
3212.267;1.037
3213.533;1.038
3213.867;1.039
3215.733;1.04
3216.533;1.042
3218.533;1.043
3220.267;1.044
3221.867;1.045
3223.467;1.046
3224.467;1.048
3225.533;1.049
3226.6;1.05
3227.867;1.051
3229.667;1.053
3231.933;1.054
3233.8;1.055
3234.867;1.056
3236.6;1.058
3239.2;1.059
3240.133;1.06
3241.867;1.061
3243.467;1.063
3245.267;1.064
3246.467;1.065
3248.267;1.066
3249.6;1.067
3250.533;1.069
3253.067;1.07
3253.533;1.071
3254.333;1.072
3256.867;1.074
3259.067;1.075
3260.867;1.076
3261.533;1.077
3262.933;1.078
3264.933;1.08
3267.2;1.081
3267.533;1.082
3270;1.083
3273.067;1.085
3273.6;1.086
3275.067;1.087
3277.2;1.088
3279.133;1.09
3280.2;1.091
3282.067;1.092
3283.867;1.093
3284.867;1.094
3286.8;1.096
3288.267;1.097
3290.067;1.098
3291.867;1.099
3293.933;1.101
3296;1.102
3297.867;1.103
3300.133;1.104
3302.8;1.105
3304.733;1.107
3306.533;1.108
3308.467;1.109
3310.733;1.11
3312.733;1.112
3314.267;1.113
3316.267;1.114
3317.933;1.115
3320.2;1.117
3321.2;1.118
3323.067;1.119
3325.733;1.12
3327.133;1.121
3328.667;1.123
3330;1.124
3332.267;1.125
3334.067;1.126
3335.333;1.128
3336.6;1.129
3338.467;1.13
3339.4;1.131
3340.8;1.133
3342.867;1.134
3344.8;1.135
3345.333;1.136
3346.2;1.137
3347.533;1.139
3349.8;1.14
3351.533;1.141
3352.533;1.142
3354.2;1.144
3356.467;1.145
3358.267;1.146
3359.8;1.147
3362.267;1.149
3363.533;1.15
3365.6;1.151
3367.067;1.152
3368.533;1.153
3370.867;1.155
3373.067;1.156
3374.867;1.157
3377.067;1.158
3378.867;1.16
3380.333;1.161
3382.733;1.162
3385.467;1.163
3388.733;1.165
3390.867;1.166
3392.467;1.167
3395.6;1.168
3399.733;1.169
3403.267;1.171
3405.733;1.172
3410.4;1.173
3414.667;1.174
3418.133;1.176
3422.8;1.177
3427.733;1.178
3431.2;1.179
3435.467;1.181
3438.867;1.182
3442.667;1.183
3445.467;1.184
3450.8;1.186
3454.667;1.187
3457.933;1.188
3462.6;1.189
3467.867;1.19
3472;1.192
3478.267;1.193
3484.533;1.194
3489;1.195
3493.8;1.197
3499.6;1.198
3503.533;1.199
3507.667;1.2
3514.6;1.201
3520.467;1.203
3523.267;1.204
3527.4;1.205
3533;1.206
3537.933;1.208
3541;1.209
3544.933;1.21
3551.533;1.211
3556.8;1.213
3560.8;1.214
3567.2;1.215
3572.533;1.216
3579.667;1.218
3584.933;1.219
3591.6;1.22
3596.267;1.221
3603.6;1.222
3610.933;1.224
3616.6;1.225
3621.4;1.226
3627.8;1.227
3634.133;1.229
3638.867;1.23
3644.733;1.231
3651.533;1.232
3659.533;1.234
3664.6;1.235
3671.533;1.236
3676.6;1.237
3683.133;1.238
3689;1.24
3696;1.241
3701.4;1.242
3708.4;1.243
3713.333;1.245
3719.8;1.246
3724;1.247
3731.067;1.248
3737.933;1.25
3742.267;1.251
3747.333;1.252
3753.2;1.253
3759.333;1.255
3763.533;1.256
3768.667;1.257
3774.467;1.258
3780.467;1.259
3784.8;1.261
3789.2;1.262
3795.733;1.263
3802.267;1.264
3808.133;1.266
3812.867;1.267
3817.867;1.268
3821.867;1.269
3827.133;1.271
3832.6;1.272
3837;1.273
3840.667;1.274
3845.4;1.276
3850.133;1.277
3855.267;1.278
3858.4;1.279
3863.333;1.281
3867.933;1.282
3871.2;1.283
3875.6;1.284
3877.933;1.286
3881.067;1.287
3884.867;1.288
3888.533;1.289
3892.2;1.29
3894.467;1.292
3897.8;1.293
3900.267;1.294
3903.133;1.295
3906;1.297
3908.333;1.298
3910.733;1.299
3913.6;1.3
3917.267;1.302
3919.933;1.303
3922.067;1.304
3925.533;1.305
3928.067;1.306
3930.467;1.308
3933.133;1.309
3936.733;1.31
3939.467;1.311
3942.267;1.313
3945.133;1.314
3948.333;1.315
3952.067;1.316
3956.133;1.318
3958.8;1.319
3962.867;1.32
3966;1.321
3969.867;1.323
3972.733;1.324
3976.267;1.325
3979;1.326
3983.2;1.327
3986.4;1.329
3990.267;1.33
3994.8;1.331
3998.067;1.332
4001.733;1.334
4004.933;1.335
4007.067;1.336
4009.733;1.337
4013.8;1.339
4017.6;1.34
4020.6;1.341
4023.133;1.342
4026.667;1.343
4029.6;1.345
4033.267;1.346
4035.933;1.347
4040.267;1.349
4043.6;1.35
4046.2;1.351
4048.933;1.352
4052.2;1.354
4056.8;1.355
4059.533;1.356
4062.333;1.357
4065.933;1.358
4070;1.36
4073.467;1.361
4076.8;1.362
4080.667;1.363
4083.6;1.365
4087.533;1.366
4090.267;1.367
4094.533;1.368
4098.267;1.37
4102.667;1.371
4106.267;1.372
4109.6;1.373
4113.4;1.375
4116.2;1.376
4121.133;1.377
4126.267;1.378
4130.867;1.379
4133.067;1.381
4136.467;1.382
4139.8;1.383
4144.267;1.384
4147.8;1.386
4151.067;1.387
4154.333;1.388
4158.267;1.389
4161.867;1.391
4164.4;1.392
4167.467;1.393
4172.2;1.394
4176.2;1.396
4180.267;1.397
4184.333;1.398
4189.4;1.399
4192.133;1.401
4196.133;1.402
4199.467;1.403
4202.2;1.404
4206.2;1.405
4210.867;1.407
4214.6;1.408
4217.667;1.409
4221.2;1.41
4224.333;1.412
4227.533;1.413
4230.867;1.414
4235.8;1.415
4238.867;1.417
4242.4;1.418
4245.8;1.419
4250.533;1.42
4254.4;1.422
4257.333;1.423
4261.8;1.424
4266.733;1.425
4269.8;1.427
4272.933;1.428
4276.333;1.429
4280.333;1.43
4283.067;1.431
4286.533;1.433
4290.467;1.434
4295.6;1.435
4299.333;1.436
4303.8;1.438
4308.267;1.439
4311.067;1.44
4316.267;1.441
4319.667;1.443
4323.667;1.444
4327.067;1.445
4332.133;1.446
4336.8;1.448
4340;1.449
4344.333;1.45
4349;1.451
4353.067;1.453
4356.067;1.454
4360.667;1.455
4366.2;1.456
4368.8;1.457
4371.733;1.459
4375.333;1.46
4379.933;1.461
4383.2;1.462
4387.667;1.464
4390.733;1.465
4395.067;1.466
4398.133;1.467
4401.8;1.469
4404.333;1.47
4408.733;1.471
4412;1.472
4415.333;1.474
4418.067;1.475
4421.733;1.476
4426;1.477
4428.8;1.479
4431.533;1.48
4435.333;1.481
4439.4;1.482
4442.2;1.484
4445.133;1.485
4449.333;1.486
4453.8;1.487
4456.533;1.488
4459.6;1.49
4463.067;1.491
4468.067;1.492
4471.467;1.493
4474.8;1.495
4477.667;1.496
4482.4;1.497
4485.867;1.498
4489.867;1.5
4493.867;1.501
4497;1.502
4500.733;1.503
4505.333;1.505
4508.933;1.506
4511.733;1.507
4516.933;1.508
4521.267;1.51
4524.133;1.511
4528.6;1.512
4532.267;1.513
4537.733;1.515
4541;1.516
4545.867;1.517
4549.333;1.518
4552.867;1.52
4557.267;1.521
4560.067;1.522
4563.867;1.523
4567.467;1.524
4570.667;1.526
4574.333;1.527
4577.133;1.528
4582.4;1.529
4585.4;1.531
4589.533;1.532
4593.8;1.533
4597.2;1.534
4601.467;1.536
4605.867;1.537
4609;1.538
4611.867;1.539
4615.6;1.54
4620;1.542
4623.267;1.543
4627.533;1.544
4631.533;1.546
4635.067;1.547
4637.6;1.548
4641.067;1.549
4644.867;1.55
4647.467;1.552
4651.8;1.553
4655.467;1.554
4659.4;1.556
4662.4;1.557
4666.6;1.558
4670.133;1.559
